Time_abs/ps, Signal 1/nA, Signal 2/nA
  2210.000,    -0.011399,     0.000242
  2210.050,    -0.002674,    -0.003107
  2210.100,     0.000266,     0.000191
  2210.150,     0.005032,     0.003547
  2210.200,     0.008776,    -0.000873
  2210.250,     0.021787,    -0.000573
  2210.300,     0.026231,     0.000812
  2210.350,     0.046459,    -0.009462
  2210.400,     0.051442,     0.009910
  2210.450,     0.071462,    -0.003422
  2210.500,     0.080857,     0.006667
  2210.550,     0.087828,    -0.005713
  2210.600,     0.109794,     0.005490
  2210.650,     0.127538,    -0.002736
  2210.700,     0.146787,     0.011757
  2210.750,     0.167866,     0.005281
  2210.800,     0.194422,     0.009275
  2210.850,     0.214400,     0.004299
  2210.900,     0.240818,     0.001853
  2210.950,     0.260121,    -0.005187
  2211.000,     0.289756,    -0.005489
  2211.050,     0.322685,     0.004180
  2211.100,     0.345742,     0.004992
  2211.150,     0.382044,     0.007545
  2211.200,     0.402575,     0.004360
  2211.250,     0.428529,     0.005900
  2211.300,     0.458329,     0.000160
  2211.350,     0.482726,     0.007648
  2211.400,     0.518029,     0.000677
  2211.450,     0.556812,     0.005323
  2211.500,     0.560545,     0.007975
  2211.550,     0.581099,     0.000783
  2211.600,     0.609912,     0.004812
  2211.650,     0.616277,     0.000622
  2211.700,     0.637573,     0.004570
  2211.750,     0.641173,    -0.000035
  2211.800,     0.642921,     0.006286
  2211.850,     0.647191,    -0.004026
  2211.900,     0.649163,     0.009297
  2211.950,     0.645040,     0.005429
  2212.000,     0.628370,     0.006663
  2212.050,     0.638990,     0.003305
  2212.100,     0.617627,     0.000039
  2212.150,     0.603810,     0.000419
  2212.200,     0.584622,     0.000401
  2212.250,     0.559780,     0.003201
  2212.300,     0.535050,     0.003761
  2212.350,     0.526387,     0.006916
  2212.400,     0.484254,     0.000406
  2212.450,     0.475830,    -0.001348
  2212.500,     0.435856,     0.007257
  2212.550,     0.414789,     0.007555
  2212.600,     0.374352,     0.009606
  2212.650,     0.351499,     0.013040
  2212.700,     0.313643,     0.004232
  2212.750,     0.276587,    -0.000415
  2212.800,     0.247114,     0.002957
  2212.850,     0.215552,     0.010832
  2212.900,     0.176412,     0.000738
  2212.950,     0.142886,    -0.003111
  2213.000,     0.108040,     0.004642
  2213.050,     0.080161,     0.002024
  2213.100,     0.035887,    -0.002953
  2213.150,     0.002189,     0.000927
  2213.200,    -0.019726,     0.003882
  2213.250,    -0.051462,     0.004290
  2213.300,    -0.092689,     0.007375
  2213.350,    -0.123468,     0.002148
  2213.400,    -0.131429,     0.007928
  2213.450,    -0.164421,     0.000033
  2213.500,    -0.187234,     0.003004
  2213.550,    -0.212910,     0.009981
  2213.600,    -0.226091,     0.007525
  2213.650,    -0.248342,     0.005867
  2213.700,    -0.262928,    -0.000892
  2213.750,    -0.271441,     0.006350
  2213.800,    -0.287345,     0.003477
  2213.850,    -0.319683,     0.000082
  2213.900,    -0.333984,     0.004235
  2213.950,    -0.356464,     0.007025
  2214.000,    -0.380392,    -0.001359
  2214.050,    -0.402760,     0.003575
  2214.100,    -0.413246,     0.001508
  2214.150,    -0.420825,    -0.001795
  2214.200,    -0.405961,     0.002627
  2214.250,    -0.375762,     0.002414
  2214.300,    -0.318902,    -0.000898
  2214.350,    -0.229044,    -0.000249
  2214.400,    -0.100353,     0.004375
  2214.450,     0.028980,     0.006217
  2214.500,     0.157489,     0.007159
  2214.550,     0.282173,     0.005265
  2214.600,     0.392960,    -0.000767
  2214.650,     0.491612,     0.001188
  2214.700,     0.547219,     0.005658
  2214.750,     0.571977,     0.001385
  2214.800,     0.566238,    -0.000825
  2214.850,     0.565940,     0.001219
  2214.900,     0.527396,     0.005059
  2214.950,     0.485370,     0.006730
  2215.000,     0.442377,     0.007166
  2215.050,     0.388277,     0.001954
  2215.100,     0.334038,     0.003913
  2215.150,     0.278062,     0.007372
  2215.200,     0.237766,     0.005147
  2215.250,     0.174253,     0.005366
  2215.300,     0.147330,     0.007992
  2215.350,     0.126496,     0.006980
  2215.400,     0.092887,     0.003396
  2215.450,     0.055965,    -0.007721
  2215.500,     0.015216,     0.002237
  2215.550,    -0.016020,     0.009744
  2215.600,    -0.048621,     0.005180
  2215.650,    -0.080457,     0.000967
  2215.700,    -0.107197,     0.001143
  2215.750,    -0.134304,     0.000394
  2215.800,    -0.129139,     0.007060
  2215.850,    -0.148906,     0.009789
  2215.900,    -0.144449,     0.000136
  2215.950,    -0.140807,     0.003869
  2216.000,    -0.158937,     0.005739
  2216.050,    -0.178538,     0.001163
  2216.100,    -0.228460,    -0.002901
  2216.150,    -0.290808,    -0.001625
  2216.200,    -0.356745,    -0.000272
  2216.250,    -0.443053,    -0.000471
  2216.300,    -0.505845,     0.005454
  2216.350,    -0.572961,    -0.006714
  2216.400,    -0.627379,     0.003961
  2216.450,    -0.645764,     0.000552
  2216.500,    -0.668020,     0.006382
  2216.550,    -0.675885,     0.002432
  2216.600,    -0.678003,     0.005897
  2216.650,    -0.692065,     0.001270
  2216.700,    -0.685517,     0.001870
  2216.750,    -0.697368,     0.002076
  2216.800,    -0.700690,     0.004636
  2216.850,    -0.730100,     0.004237
  2216.900,    -0.736837,     0.003857
  2216.950,    -0.757010,     0.008433
  2217.000,    -0.773322,     0.001841
  2217.050,    -0.795850,     0.000149
  2217.100,    -0.813043,     0.007148
  2217.150,    -0.825707,     0.009595
  2217.200,    -0.850765,    -0.000447
  2217.250,    -0.847225,     0.004144
  2217.300,    -0.855542,     0.001669
  2217.350,    -0.852142,    -0.003600
  2217.400,    -0.842203,     0.001295
  2217.450,    -0.832724,     0.005392
  2217.500,    -0.823426,    -0.002613
  2217.550,    -0.804585,    -0.001876
  2217.600,    -0.784327,     0.006928
  2217.650,    -0.772083,     0.006378
  2217.700,    -0.777663,    -0.000912
  2217.750,    -0.767818,     0.004353
  2217.800,    -0.778153,     0.003016
  2217.850,    -0.796508,     0.001858
  2217.900,    -0.838433,     0.005149
  2217.950,    -0.886310,    -0.002925
  2218.000,    -0.927518,    -0.000754
  2218.050,    -0.997069,     0.005302
  2218.100,    -1.067580,     0.004638
  2218.150,    -1.138818,     0.000297
  2218.200,    -1.210817,     0.002075
  2218.250,    -1.286971,     0.011607
  2218.300,    -1.344834,     0.002432
  2218.350,    -1.409237,     0.001382
  2218.400,    -1.474130,     0.002118
  2218.450,    -1.547493,     0.003805
  2218.500,    -1.628796,    -0.002967
  2218.550,    -1.727742,    -0.002426
  2218.600,    -1.839167,     0.007941
  2218.650,    -1.974451,     0.006092
  2218.700,    -2.126744,     0.005448
  2218.750,    -2.288134,     0.006886
  2218.800,    -2.464752,     0.001531
  2218.850,    -2.638110,     0.002081
  2218.900,    -2.843068,     0.001175
  2218.950,    -3.070596,    -0.003707
  2219.000,    -3.317667,     0.004947
  2219.050,    -3.566485,     0.002781
  2219.100,    -3.825959,    -0.003273
  2219.150,    -4.085938,     0.003162
  2219.200,    -4.318003,     0.001188
  2219.250,    -4.509714,     0.000882
  2219.300,    -4.600596,    -0.002211
  2219.350,    -4.527440,    -0.001926
  2219.400,    -4.232816,     0.003355
  2219.450,    -3.664848,     0.003463
  2219.500,    -2.759598,     0.008674
  2219.550,    -1.511097,     0.004457
  2219.600,     0.018180,     0.003353
  2219.650,     1.715847,    -0.005361
  2219.700,     3.435099,    -0.001996
  2219.750,     4.998349,     0.001151
  2219.800,     6.205452,    -0.003132
  2219.850,     6.931562,    -0.002648
  2219.900,     7.139769,    -0.003598
  2219.950,     6.831776,    -0.002333
  2220.000,     6.068495,     0.002061
  2220.050,     4.919082,    -0.001977
  2220.100,     3.472145,    -0.001359
  2220.150,     1.833569,    -0.000037
  2220.200,     0.114912,     0.002535
  2220.250,    -1.663790,     0.001461
  2220.300,    -3.437276,     0.001063
  2220.350,    -5.149713,    -0.000170
  2220.400,    -6.787829,    -0.002861
  2220.450,    -8.347274,     0.007646
  2220.500,    -9.844598,     0.008740
  2220.550,   -11.292845,     0.003110
  2220.600,   -12.724678,     0.007525
  2220.650,   -14.205086,     0.008363
  2220.700,   -15.765893,     0.007594
  2220.750,   -17.443765,     0.007212
  2220.800,   -19.254198,     0.006932
  2220.850,   -21.192006,     0.002560
  2220.900,   -23.257601,    -0.000365
  2220.950,   -25.450925,     0.004681
  2221.000,   -27.796662,     0.000264
  2221.050,   -30.302456,     0.002747
  2221.100,   -33.000363,     0.005938
  2221.150,   -35.995525,     0.006251
  2221.200,   -39.356979,     0.003368
  2221.250,   -43.142171,     0.006730
  2221.300,   -47.448651,     0.005271
  2221.350,   -52.278124,     0.022072
  2221.400,   -57.615533,     0.023614
  2221.450,   -63.417004,     0.013613
  2221.500,   -69.697332,     0.011899
  2221.550,   -76.425513,     0.018232
  2221.600,   -83.577138,     0.019515
  2221.650,   -91.182765,     0.016113
  2221.700,   -99.395652,     0.019291
  2221.750,  -108.403209,     0.019257
  2221.800,  -118.396193,     0.022868
  2221.850,  -129.589289,     0.024540
  2221.900,  -142.194681,     0.026866
  2221.950,  -156.319245,     0.032029
  2222.000,  -171.910944,     0.035701
  2222.050,  -188.745139,     0.032531
  2222.100,  -206.374690,     0.030068
  2222.150,  -223.916527,     0.033412
  2222.200,  -239.980703,     0.040099
  2222.250,  -252.426560,     0.040341
  2222.300,  -258.209133,     0.033610
  2222.350,  -253.532994,     0.025361
  2222.400,  -234.015827,     0.027594
  2222.450,  -195.298989,     0.020337
  2222.500,  -133.948660,     0.014600
  2222.550,   -48.843947,     0.010261
  2222.600,    58.093909,    -0.008063
  2222.650,   181.303791,    -0.023761
  2222.700,   311.912634,    -0.035986
  2222.750,   439.176420,    -0.056038
  2222.800,   552.191589,    -0.067575
  2222.850,   642.233787,    -0.077069
  2222.900,   704.236004,    -0.085213
  2222.950,   736.341313,    -0.091570
  2223.000,   739.716036,    -0.093835
  2223.050,   717.705754,    -0.088231
  2223.100,   674.870985,    -0.084242
  2223.150,   616.205073,    -0.077794
  2223.200,   546.747949,    -0.069335
  2223.250,   470.934964,    -0.064443
  2223.300,   392.416215,    -0.052611
  2223.350,   314.405926,    -0.041651
  2223.400,   239.756941,    -0.028568
  2223.450,   171.080856,    -0.023028
  2223.500,   110.156992,    -0.023934
  2223.550,    57.358133,    -0.012347
  2223.600,    11.870210,    -0.000110
  2223.650,   -27.800823,     0.004669
  2223.700,   -62.634742,     0.008349
  2223.750,   -92.786129,     0.010911
  2223.800,  -117.707914,     0.010395
  2223.850,  -136.419043,     0.018785
  2223.900,  -147.952956,     0.027681
  2223.950,  -151.535748,     0.021135
  2224.000,  -146.902200,     0.027474
  2224.050,  -134.637201,     0.023954
  2224.100,  -116.725281,     0.022841
  2224.150,   -96.835598,     0.026450
  2224.200,   -79.807968,     0.017762
  2224.250,   -70.354758,     0.021012
  2224.300,   -71.803543,     0.022225
  2224.350,   -84.985350,     0.019676
  2224.400,  -108.170852,     0.028695
  2224.450,  -137.790324,     0.025481
  2224.500,  -169.215902,     0.021945
  2224.550,  -197.069298,     0.031328
  2224.600,  -216.240589,     0.035930
  2224.650,  -222.984746,     0.035639
  2224.700,  -216.271457,     0.029150
  2224.750,  -198.312424,     0.025747
  2224.800,  -173.631802,     0.026365
  2224.850,  -147.281639,     0.027898
  2224.900,  -123.155103,     0.025280
  2224.950,  -103.180024,     0.020176
  2225.000,   -87.715897,     0.019169
  2225.050,   -76.537460,     0.015250
  2225.100,   -69.550408,     0.009129
  2225.150,   -66.613495,     0.015517
  2225.200,   -67.220792,     0.015676
  2225.250,   -70.320376,     0.012079
  2225.300,   -74.761457,     0.013277
  2225.350,   -79.736098,     0.015886
  2225.400,   -84.609902,     0.014654
  2225.450,   -88.572097,     0.016776
  2225.500,   -90.477288,     0.013644
  2225.550,   -89.325894,     0.013456
  2225.600,   -84.830576,     0.016392
  2225.650,   -77.462792,     0.014004
  2225.700,   -68.030679,     0.014176
  2225.750,   -57.175016,     0.010062
  2225.800,   -44.984565,     0.011829
  2225.850,   -31.513802,     0.000848
  2225.900,   -17.416586,     0.001085
  2225.950,    -4.152772,     0.003240
  2226.000,     6.500203,     0.003995
  2226.050,    13.305156,     0.001847
  2226.100,    15.712828,     0.001815
  2226.150,    13.527829,     0.005198
  2226.200,     6.750219,     0.007795
  2226.250,    -4.463437,     0.000832
  2226.300,   -19.178259,     0.002501
  2226.350,   -35.218569,    -0.001901
  2226.400,   -49.341295,     0.001899
  2226.450,   -58.327886,     0.010372
  2226.500,   -60.518288,     0.013002
  2226.550,   -56.225610,     0.013508
  2226.600,   -47.183738,     0.004280
  2226.650,   -35.773304,     0.005991
  2226.700,   -24.582703,     0.004687
  2226.750,   -16.118402,     0.007163
  2226.800,   -12.295034,     0.010185
  2226.850,   -13.743706,     0.005703
  2226.900,   -19.245752,     0.004483
  2226.950,   -26.160326,     0.006433
  2227.000,   -31.616452,     0.007354
  2227.050,   -33.547523,     0.009041
  2227.100,   -31.162202,     0.005175
  2227.150,   -24.829206,     0.002887
  2227.200,   -15.478801,     0.004509
  2227.250,    -3.966513,     0.006393
  2227.300,     9.060717,     0.002551
  2227.350,    22.904635,     0.004113
  2227.400,    36.319238,     0.002700
  2227.450,    47.759949,    -0.001017
  2227.500,    55.844632,    -0.003373
  2227.550,    59.616472,     0.007090
  2227.600,    58.643534,     0.003033
  2227.650,    53.120020,    -0.007018
  2227.700,    44.046471,    -0.006827
  2227.750,    33.213969,    -0.005959
  2227.800,    22.742071,    -0.005732
  2227.850,    14.361400,    -0.003361
  2227.900,     8.413950,    -0.000623
  2227.950,     3.739836,     0.004417
  2228.000,    -1.137948,     0.000419
  2228.050,    -6.666569,     0.000003
  2228.100,   -12.239277,     0.008071
  2228.150,   -17.306134,    -0.001843
  2228.200,   -22.197599,     0.004927
  2228.250,   -27.730977,     0.010538
  2228.300,   -34.492835,     0.007503
  2228.350,   -42.107933,     0.007734
  2228.400,   -49.228796,     0.004238
  2228.450,   -53.860262,     0.005409
  2228.500,   -54.010771,     0.008710
  2228.550,   -48.508437,     0.012066
  2228.600,   -37.403053,     0.007502
  2228.650,   -21.960580,     0.005327
  2228.700,    -4.221555,     0.003530
  2228.750,    13.555505,     0.001251
  2228.800,    29.028087,    -0.001993
  2228.850,    40.026155,    -0.002128
  2228.900,    45.459596,    -0.002373
  2228.950,    45.741298,    -0.006869
  2229.000,    42.402812,     0.001626
  2229.050,    37.141551,     0.008780
  2229.100,    31.112269,     0.001629
  2229.150,    25.017947,    -0.004361
  2229.200,    19.632708,    -0.003199
  2229.250,    16.018433,     0.005271
  2229.300,    15.139637,     0.005335
  2229.350,    16.992794,    -0.000091
  2229.400,    20.188549,    -0.005564
  2229.450,    22.620201,     0.001008
  2229.500,    22.798854,     0.002751
  2229.550,    20.744512,    -0.002314
  2229.600,    17.622860,    -0.001456
  2229.650,    14.539896,     0.003045
  2229.700,    11.607154,     0.001025
  2229.750,     8.043513,    -0.000032
  2229.800,     3.187219,     0.007648
  2229.850,    -2.733217,     0.009054
  2229.900,    -8.891447,     0.003359
  2229.950,   -14.663827,     0.003414
  2230.000,   -20.117973,     0.007925
  2230.050,   -25.403577,     0.005649
  2230.100,   -29.751336,     0.003903
  2230.150,   -31.461458,     0.003659
  2230.200,   -29.014054,     0.001742
  2230.250,   -22.164365,    -0.000587
  2230.300,   -12.084959,     0.008087
  2230.350,    -0.656122,     0.009200
  2230.400,    10.362165,     0.003985
  2230.450,    19.684580,     0.000356
  2230.500,    26.719548,    -0.001803
  2230.550,    31.646100,     0.002528
  2230.600,    35.001648,    -0.003186
  2230.650,    37.119598,    -0.003671
  2230.700,    38.040561,    -0.002089
  2230.750,    37.943121,    -0.008039
  2230.800,    37.279421,    -0.013803
  2230.850,    36.381820,    -0.008793
  2230.900,    34.947424,    -0.005161
  2230.950,    32.142115,     0.005351
  2231.000,    27.367458,     0.002855
  2231.050,    20.899602,    -0.005565
  2231.100,    13.758138,    -0.000603
  2231.150,     7.122930,    -0.002812
  2231.200,     1.966688,     0.006195
  2231.250,    -0.862428,     0.009348
  2231.300,    -0.677450,     0.006996
  2231.350,     2.454137,    -0.001561
  2231.400,     7.600729,     0.000565
  2231.450,    13.366127,     0.000254
  2231.500,    18.374262,    -0.009535
  2231.550,    21.735491,     0.000599
  2231.600,    23.180525,     0.004077
  2231.650,    22.927021,    -0.001329
  2231.700,    21.219459,    -0.002727
  2231.750,    17.805279,    -0.001740
  2231.800,    11.694923,     0.005183
  2231.850,     1.667820,     0.000738
  2231.900,   -12.653103,    -0.002560
  2231.950,   -29.671813,     0.007066
  2232.000,   -46.061073,     0.007108
  2232.050,   -58.312204,     0.006835
  2232.100,   -64.308305,     0.011820
  2232.150,   -63.658781,     0.013928
  2232.200,   -57.260777,     0.005614
  2232.250,   -46.816590,     0.003776
  2232.300,   -34.472422,     0.002414
  2232.350,   -22.276661,     0.002460
  2232.400,   -11.494426,     0.001848
  2232.450,    -2.351604,     0.005715
  2232.500,     5.638448,     0.009914
  2232.550,    13.105239,     0.004438
  2232.600,    20.091647,    -0.007178
  2232.650,    25.975021,    -0.004212
  2232.700,    29.904518,    -0.008496
  2232.750,    31.302379,     0.000707
  2232.800,    30.337693,     0.004976
  2232.850,    27.977857,    -0.002652
  2232.900,    25.490536,    -0.001858
  2232.950,    23.576665,     0.004056
  2233.000,    21.917357,     0.003629
  2233.050,    19.626683,    -0.005524
  2233.100,    16.136065,     0.003153
  2233.150,    11.670673,     0.006487
  2233.200,     7.078599,    -0.003846
  2233.250,     3.087972,    -0.006044
  2233.300,    -0.109285,     0.000403
  2233.350,    -2.837494,     0.011693
  2233.400,    -5.516872,     0.011862
  2233.450,    -8.334933,     0.003101
  2233.500,   -11.175845,     0.004357
  2233.550,   -13.784565,     0.002264
  2233.600,   -15.916529,     0.004530
  2233.650,   -17.495624,     0.006342
  2233.700,   -18.685572,     0.005322
  2233.750,   -19.853790,     0.001411
  2233.800,   -21.393537,     0.005415
  2233.850,   -23.567342,     0.007165
  2233.900,   -26.423889,    -0.001426
  2233.950,   -29.515004,     0.002541
  2234.000,   -31.860646,     0.009466
  2234.050,   -32.228842,     0.009826
  2234.100,   -29.556903,     0.008604
  2234.150,   -23.240916,     0.003441
  2234.200,   -13.314900,     0.003919
  2234.250,    -0.670004,     0.004569
  2234.300,    13.045805,    -0.001180
  2234.350,    26.082750,    -0.001725
  2234.400,    37.099836,    -0.002517
  2234.450,    45.533930,    -0.004202
  2234.500,    51.152049,    -0.002975
  2234.550,    53.366304,    -0.003324
  2234.600,    51.267805,    -0.004473
  2234.650,    44.370379,    -0.006115
  2234.700,    33.461851,    -0.001123
  2234.750,    20.247236,     0.005964
  2234.800,     6.689671,     0.001152
  2234.850,    -5.650474,    -0.008675
  2234.900,   -15.493506,     0.001945
  2234.950,   -21.472056,     0.010267
  2235.000,   -22.523194,     0.002143
  2235.050,   -18.575889,    -0.000496
  2235.100,   -10.786411,     0.004278
  2235.150,    -1.018502,     0.004943
  2235.200,     8.830627,    -0.002421
  2235.250,    17.102962,    -0.005267
  2235.300,    22.319718,    -0.001444
  2235.350,    23.306902,     0.001383
  2235.400,    19.721465,    -0.006218
  2235.450,    12.356256,    -0.005416
  2235.500,     2.923744,     0.009360
