Time_abs/ps, Signal 1/nA, Ref.signal 1/nA, Signal 2/nA, Ref.signal 2/nA
  1590.000,    -0.044762,    -0.068940,     0.001730,
  1590.050,    -0.025992,    -0.032358,    -0.001758,
  1590.100,    -0.001478,     0.003758,    -0.000122,
  1590.150,     0.025023,     0.036722,     0.000051,
  1590.200,     0.047210,     0.060818,     0.000100,
  1590.250,     0.076616,     0.087398,     0.000863,
  1590.300,     0.107269,     0.107026,     0.001006,
  1590.350,     0.134287,     0.126921,     0.003904,
  1590.400,     0.166019,     0.137211,     0.000289,
  1590.450,     0.197611,     0.146189,     0.002353,
  1590.500,     0.229309,     0.148571,     0.002746,
  1590.550,     0.265816,     0.147922,     0.001332,
  1590.600,     0.299400,     0.144196,     0.002109,
  1590.650,     0.332305,     0.133075,    -0.001588,
  1590.700,     0.372639,     0.123636,     0.001623,
  1590.750,     0.405562,     0.108291,    -0.000030,
  1590.800,     0.439405,     0.086235,    -0.000109,
  1590.850,     0.469835,     0.068167,     0.000019,
  1590.900,     0.498028,     0.042312,    -0.000753,
  1590.950,     0.528864,     0.017910,     0.000359,
  1591.000,     0.553140,    -0.009890,    -0.000411,
  1591.050,     0.574332,    -0.041528,     0.000371,
  1591.100,     0.594401,    -0.072983,     0.001216,
  1591.150,     0.608530,    -0.106378,     0.001462,
  1591.200,     0.624491,    -0.145444,     0.001785,
  1591.250,     0.632426,    -0.182438,     0.002439,
  1591.300,     0.639775,    -0.220007,    -0.000320,
  1591.350,     0.641788,    -0.260168,     0.001904,
  1591.400,     0.640344,    -0.302175,     0.001201,
  1591.450,     0.639456,    -0.343312,     0.001438,
  1591.500,     0.631188,    -0.383203,     0.001848,
  1591.550,     0.625625,    -0.421774,     0.001870,
  1591.600,     0.607297,    -0.463156,     0.000733,
  1591.650,     0.594404,    -0.501765,    -0.001042,
  1591.700,     0.576485,    -0.540231,     0.002490,
  1591.750,     0.556417,    -0.574352,    -0.001322,
  1591.800,     0.528006,    -0.609320,     0.000569,
  1591.850,     0.500470,    -0.639689,    -0.000946,
  1591.900,     0.470631,    -0.669676,     0.003347,
  1591.950,     0.445564,    -0.692633,    -0.000539,
  1592.000,     0.408622,    -0.714664,     0.002430,
  1592.050,     0.375010,    -0.736240,     0.001423,
  1592.100,     0.336261,    -0.756595,    -0.001572,
  1592.150,     0.300224,    -0.775647,     0.003661,
  1592.200,     0.264555,    -0.789453,     0.001217,
  1592.250,     0.223282,    -0.810170,     0.000647,
  1592.300,     0.185775,    -0.823961,    -0.000569,
  1592.350,     0.147402,    -0.844216,     0.001524,
  1592.400,     0.109820,    -0.866561,     0.000496,
  1592.450,     0.070338,    -0.889400,     0.000784,
  1592.500,     0.038559,    -0.914718,    -0.000243,
  1592.550,     0.004986,    -0.940135,     0.000314,
  1592.600,    -0.025127,    -0.963436,    -0.000174,
  1592.650,    -0.048836,    -0.980736,    -0.000127,
  1592.700,    -0.073512,    -0.982009,     0.002679,
  1592.750,    -0.092799,    -0.963601,    -0.000021,
  1592.800,    -0.116760,    -0.917532,     0.002280,
  1592.850,    -0.133084,    -0.849515,     0.001067,
  1592.900,    -0.147201,    -0.750218,     0.004341,
  1592.950,    -0.164034,    -0.634393,     0.003843,
  1593.000,    -0.177384,    -0.511822,    -0.000249,
  1593.050,    -0.190920,    -0.398317,     0.000425,
  1593.100,    -0.205285,    -0.303906,     0.002587,
  1593.150,    -0.221536,    -0.234535,     0.001495,
  1593.200,    -0.242453,    -0.191423,     0.002074,
  1593.250,    -0.262906,    -0.167960,     0.001529,
  1593.300,    -0.281951,    -0.170587,     0.002836,
  1593.350,    -0.302966,    -0.176735,     0.000682,
  1593.400,    -0.317440,    -0.197040,     0.001077,
  1593.450,    -0.324075,    -0.223862,     0.001892,
  1593.500,    -0.318995,    -0.249286,    -0.000866,
  1593.550,    -0.298128,    -0.277634,    -0.001296,
  1593.600,    -0.260482,    -0.304435,     0.001329,
  1593.650,    -0.202568,    -0.327070,     0.001827,
  1593.700,    -0.127325,    -0.348608,     0.001964,
  1593.750,    -0.041226,    -0.368129,     0.001232,
  1593.800,     0.047472,    -0.383951,     0.001913,
  1593.850,     0.136071,    -0.395176,     0.003472,
  1593.900,     0.215050,    -0.410087,     0.000149,
  1593.950,     0.273174,    -0.422619,    -0.001739,
  1594.000,     0.313940,    -0.440700,    -0.000183,
  1594.050,     0.331779,    -0.460708,     0.000532,
  1594.100,     0.328096,    -0.481096,    -0.000672,
  1594.150,     0.309357,    -0.495079,     0.000729,
  1594.200,     0.277036,    -0.513177,     0.001949,
  1594.250,     0.241935,    -0.530747,    -0.000261,
  1594.300,     0.197613,    -0.540671,     0.000834,
  1594.350,     0.156498,    -0.557013,    -0.000031,
  1594.400,     0.114143,    -0.570263,     0.001004,
  1594.450,     0.076119,    -0.585049,     0.001378,
  1594.500,     0.039421,    -0.602013,     0.000173,
  1594.550,     0.012070,    -0.626659,     0.002618,
  1594.600,    -0.013686,    -0.659165,     0.002189,
  1594.650,    -0.037183,    -0.698619,    -0.000089,
  1594.700,    -0.052402,    -0.746672,     0.000420,
  1594.750,    -0.071761,    -0.794567,     0.003682,
  1594.800,    -0.082927,    -0.841482,     0.001028,
  1594.850,    -0.096532,    -0.886194,     0.001088,
  1594.900,    -0.105422,    -0.925992,     0.001281,
  1594.950,    -0.115384,    -0.953352,     0.000870,
  1595.000,    -0.121714,    -0.974391,    -0.000221,
  1595.050,    -0.121780,    -0.998759,     0.002065,
  1595.100,    -0.123468,    -1.018365,     0.002891,
  1595.150,    -0.124464,    -1.036818,     0.002320,
  1595.200,    -0.125693,    -1.065218,     0.002106,
  1595.250,    -0.129049,    -1.094319,    -0.000015,
  1595.300,    -0.136447,    -1.125637,     0.002271,
  1595.350,    -0.149018,    -1.159225,     0.002198,
  1595.400,    -0.170303,    -1.191530,     0.002287,
  1595.450,    -0.199752,    -1.227731,    -0.000609,
  1595.500,    -0.230860,    -1.261626,    -0.001076,
  1595.550,    -0.266606,    -1.295164,     0.000291,
  1595.600,    -0.306635,    -1.332162,     0.000399,
  1595.650,    -0.346835,    -1.363674,     0.000109,
  1595.700,    -0.385171,    -1.389162,     0.002480,
  1595.750,    -0.419419,    -1.414846,     0.003044,
  1595.800,    -0.447013,    -1.436995,     0.000580,
  1595.850,    -0.476539,    -1.456060,     0.001201,
  1595.900,    -0.502347,    -1.470597,    -0.000046,
  1595.950,    -0.530900,    -1.477717,     0.000164,
  1596.000,    -0.556842,    -1.481766,     0.001630,
  1596.050,    -0.587024,    -1.485501,     0.001258,
  1596.100,    -0.616958,    -1.486216,     0.000320,
  1596.150,    -0.648420,    -1.485145,     0.000812,
  1596.200,    -0.683093,    -1.486400,     0.000510,
  1596.250,    -0.711027,    -1.490174,     0.000070,
  1596.300,    -0.738336,    -1.501924,    -0.000609,
  1596.350,    -0.771229,    -1.519628,    -0.000237,
  1596.400,    -0.797433,    -1.545563,     0.001168,
  1596.450,    -0.818034,    -1.574738,     0.001825,
  1596.500,    -0.842102,    -1.617466,     0.000407,
  1596.550,    -0.860031,    -1.661523,     0.001618,
  1596.600,    -0.873965,    -1.710792,     0.002661,
  1596.650,    -0.884825,    -1.767913,     0.001211,
  1596.700,    -0.894925,    -1.822510,     0.002110,
  1596.750,    -0.901044,    -1.878388,     0.001350,
  1596.800,    -0.906563,    -1.933359,     0.001429,
  1596.850,    -0.910499,    -1.989976,     0.002001,
  1596.900,    -0.915748,    -2.051669,     0.002055,
  1596.950,    -0.924310,    -2.121434,     0.002146,
  1597.000,    -0.932908,    -2.204914,     0.001082,
  1597.050,    -0.950013,    -2.303493,     0.001037,
  1597.100,    -0.973758,    -2.412416,     0.001989,
  1597.150,    -1.005031,    -2.531952,     0.001353,
  1597.200,    -1.042609,    -2.670573,    -0.001630,
  1597.250,    -1.087296,    -2.818230,     0.001194,
  1597.300,    -1.137629,    -2.977677,     0.003171,
  1597.350,    -1.195103,    -3.152609,     0.001036,
  1597.400,    -1.257609,    -3.342651,     0.001016,
  1597.450,    -1.320823,    -3.554891,     0.000621,
  1597.500,    -1.389270,    -3.785864,     0.003192,
  1597.550,    -1.458028,    -4.032132,    -0.000361,
  1597.600,    -1.527268,    -4.294707,    -0.001343,
  1597.650,    -1.596469,    -4.563954,    -0.000021,
  1597.700,    -1.666403,    -4.826511,     0.000727,
  1597.750,    -1.742082,    -5.056435,     0.001159,
  1597.800,    -1.829605,    -5.212925,     0.000907,
  1597.850,    -1.924524,    -5.256636,     0.002247,
  1597.900,    -2.027540,    -5.133145,     0.000530,
  1597.950,    -2.139294,    -4.767798,     0.002147,
  1598.000,    -2.266442,    -4.113469,    -0.000449,
  1598.050,    -2.404057,    -3.144218,     0.001921,
  1598.100,    -2.557832,    -1.868697,     0.001894,
  1598.150,    -2.723159,    -0.379814,     0.002347,
  1598.200,    -2.905780,     1.164833,     0.002012,
  1598.250,    -3.101908,     2.588920,     0.002307,
  1598.300,    -3.311219,     3.714544,     0.000750,
  1598.350,    -3.534045,     4.407170,    -0.000054,
  1598.400,    -3.759773,     4.621544,    -0.000176,
  1598.450,    -3.978378,     4.383396,     0.001828,
  1598.500,    -4.173738,     3.762534,     0.001626,
  1598.550,    -4.312770,     2.861880,     0.000015,
  1598.600,    -4.366532,     1.747787,     0.001805,
  1598.650,    -4.294092,     0.491688,     0.001845,
  1598.700,    -4.051858,    -0.848243,     0.000989,
  1598.750,    -3.598456,    -2.224733,     0.000976,
  1598.800,    -2.916941,    -3.592406,    -0.000310,
  1598.850,    -2.006211,    -4.932687,     0.001700,
  1598.900,    -0.887947,    -6.247413,     0.002834,
  1598.950,     0.351827,    -7.543628,    -0.000468,
  1599.000,     1.615058,    -8.831711,    -0.002633,
  1599.050,     2.786158,   -10.097991,     0.001818,
  1599.100,     3.752610,   -11.364228,     0.001554,
  1599.150,     4.416355,   -12.711254,     0.000575,
  1599.200,     4.712183,   -14.156449,     0.001808,
  1599.250,     4.618612,   -15.712635,     0.000027,
  1599.300,     4.152807,   -17.410907,     0.000155,
  1599.350,     3.369324,   -19.254477,     0.000715,
  1599.400,     2.330368,   -21.225800,     0.002049,
  1599.450,     1.109990,   -23.338304,     0.003672,
  1599.500,    -0.225054,   -25.634721,    -0.000603,
  1599.550,    -1.623449,   -28.131044,     0.001700,
  1599.600,    -3.045215,   -30.831510,     0.002815,
  1599.650,    -4.450064,   -33.774863,     0.004038,
  1599.700,    -5.825965,   -37.006192,     0.001749,
  1599.750,    -7.186808,   -40.556818,     0.002714,
  1599.800,    -8.544454,   -44.455466,     0.000596,
  1599.850,    -9.881920,   -48.774539,     0.000264,
  1599.900,   -11.242298,   -53.534944,     0.004706,
  1599.950,   -12.676996,   -58.711274,     0.002366,
  1600.000,   -14.189838,   -64.314675,     0.002439,
  1600.050,   -15.797201,   -70.381396,     0.004506,
  1600.100,   -17.536640,   -76.967427,     0.004788,
  1600.150,   -19.415684,   -84.156929,     0.004704,
  1600.200,   -21.440758,   -92.058566,     0.005028,
  1600.250,   -23.624191,  -100.799520,     0.005047,
  1600.300,   -26.008271,  -110.522585,     0.004473,
  1600.350,   -28.590235,  -121.452430,     0.005981,
  1600.400,   -31.391612,  -133.754885,     0.004978,
  1600.450,   -34.460309,  -147.528762,     0.006703,
  1600.500,   -37.814959,  -162.834933,     0.007640,
  1600.550,   -41.483800,  -179.574572,     0.007246,
  1600.600,   -45.497710,  -197.472647,     0.006631,
  1600.650,   -49.918509,  -215.888354,     0.008504,
  1600.700,   -54.769513,  -233.748932,     0.009651,
  1600.750,   -60.065030,  -249.297246,     0.007695,
  1600.800,   -65.826659,  -260.056609,     0.010665,
  1600.850,   -72.122600,  -262.565857,     0.013158,
  1600.900,   -78.997481,  -252.578728,     0.014114,
  1600.950,   -86.535286,  -225.451961,     0.015031,
  1601.000,   -94.850040,  -176.977868,     0.014648,
  1601.050,  -104.030329,  -104.679404,     0.016277,
  1601.100,  -114.217882,    -8.839239,     0.018007,
  1601.150,  -125.592439,   106.136140,     0.020340,
  1601.200,  -138.205630,   231.672251,     0.020847,
  1601.250,  -152.096132,   356.166326,     0.024496,
  1601.300,  -167.205468,   467.244587,     0.026020,
  1601.350,  -183.225939,   555.137411,     0.026216,
  1601.400,  -199.657438,   614.768504,     0.030234,
  1601.450,  -215.572007,   645.991309,     0.030160,
  1601.500,  -229.591912,   652.010283,     0.032067,
  1601.550,  -239.707955,   637.141925,     0.033462,
  1601.600,  -243.447364,   605.518776,     0.033809,
  1601.650,  -237.834737,   560.981456,     0.030439,
  1601.700,  -219.555587,   507.729648,     0.026040,
  1601.750,  -185.604351,   449.887045,     0.022930,
  1601.800,  -133.855331,   390.839181,     0.016554,
  1601.850,   -63.664541,   332.609040,     0.007583,
  1601.900,    23.578262,   276.120220,    -0.002319,
  1601.950,   124.075538,   222.423484,    -0.014807,
  1602.000,   231.750029,   172.839212,    -0.026028,
  1602.050,   339.126400,   128.378837,    -0.039752,
  1602.100,   438.052668,    89.011362,    -0.053395,
  1602.150,   521.284427,    53.583790,    -0.064456,
  1602.200,   583.528133,    21.021494,    -0.071026,
  1602.250,   621.963434,    -8.799335,    -0.077994,
  1602.300,   636.450109,   -35.159339,    -0.079061,
  1602.350,   628.933300,   -56.914842,    -0.078870,
  1602.400,   602.873608,   -73.219506,    -0.075772,
  1602.450,   562.361064,   -83.860269,    -0.072275,
  1602.500,   511.764164,   -89.186607,    -0.068317,
  1602.550,   454.978603,   -89.856102,    -0.061037,
  1602.600,   395.398368,   -86.642623,    -0.054231,
  1602.650,   335.759614,   -80.779445,    -0.047041,
  1602.700,   277.928202,   -74.358365,    -0.042601,
  1602.750,   223.343769,   -70.138800,    -0.035213,
  1602.800,   172.829346,   -70.558678,    -0.025885,
  1602.850,   126.803872,   -76.723886,    -0.021447,
  1602.900,    85.401685,   -87.961458,    -0.015876,
  1602.950,    48.451653,  -102.137348,    -0.010228,
  1603.000,    15.776805,  -116.612364,    -0.005853,
  1603.050,   -12.673943,  -129.138781,    -0.000398,
  1603.100,   -36.891406,  -137.960349,     0.005557,
  1603.150,   -56.691061,  -141.649257,     0.005993,
  1603.200,   -71.867353,  -139.390899,     0.007166,
  1603.250,   -82.310373,  -131.603012,     0.010723,
  1603.300,   -88.171453,  -120.445189,     0.011480,
  1603.350,   -90.009831,  -109.066470,     0.013137,
  1603.400,   -88.793534,  -100.018354,     0.015457,
  1603.450,   -85.826899,   -94.383645,     0.013037,
  1603.500,   -82.643396,   -91.707833,     0.014167,
  1603.550,   -80.785521,   -90.702525,     0.013576,
  1603.600,   -81.487699,   -90.295962,     0.017755,
  1603.650,   -85.413939,   -90.249412,     0.018850,
  1603.700,   -92.485325,   -90.885340,     0.013945,
  1603.750,  -101.864210,   -92.345023,     0.017805,
  1603.800,  -112.151169,   -94.146921,     0.018729,
  1603.850,  -121.727823,   -95.499113,     0.020105,
  1603.900,  -129.010554,   -95.880351,     0.019497,
  1603.950,  -132.820884,   -95.346260,     0.020252,
  1604.000,  -132.683426,   -94.218259,     0.018160,
  1604.050,  -128.869963,   -92.530859,     0.015819,
  1604.100,  -122.314695,   -90.053672,     0.018634,
  1604.150,  -114.372245,   -86.669679,     0.018628,
  1604.200,  -106.446380,   -82.347128,     0.017326,
  1604.250,   -99.618957,   -76.773234,     0.017112,
  1604.300,   -94.524385,   -69.412220,     0.016209,
  1604.350,   -91.323452,   -60.103932,     0.016584,
  1604.400,   -89.830216,   -49.508870,     0.016488,
  1604.450,   -89.644456,   -38.911614,     0.014314,
  1604.500,   -90.293420,   -29.739350,     0.015052,
  1604.550,   -91.363566,   -23.134449,     0.013278,
  1604.600,   -92.500207,   -19.578321,     0.014159,
  1604.650,   -93.387103,   -18.929841,     0.014639,
  1604.700,   -93.785891,   -20.886798,     0.015445,
  1604.750,   -93.533784,   -25.167227,     0.014754,
  1604.800,   -92.514673,   -31.247200,     0.013155,
  1604.850,   -90.637449,   -37.997928,     0.013074,
  1604.900,   -87.840167,   -43.648264,     0.011499,
  1604.950,   -84.020724,   -46.267773,     0.013953,
  1605.000,   -79.065077,   -44.625770,     0.013989,
  1605.050,   -72.904748,   -38.989235,     0.012974,
  1605.100,   -65.590653,   -31.050858,     0.011042,
  1605.150,   -57.332529,   -23.017961,     0.011341,
  1605.200,   -48.602037,   -16.617124,     0.011343,
  1605.250,   -40.068250,   -12.842625,     0.008444,
  1605.300,   -32.440250,   -12.177837,     0.005940,
  1605.350,   -26.431001,   -14.570194,     0.005075,
  1605.400,   -22.595841,   -19.067645,     0.007083,
  1605.450,   -21.187049,   -23.871075,     0.006731,
  1605.500,   -22.113352,   -27.131891,     0.003543,
  1605.550,   -24.956926,   -27.808437,     0.004436,
  1605.600,   -28.981531,   -25.903487,     0.006692,
  1605.650,   -33.217585,   -21.964681,     0.006156,
  1605.700,   -36.656572,   -16.652180,     0.006905,
  1605.750,   -38.429293,   -10.672638,     0.005917,
  1605.800,   -38.023883,    -4.601103,     0.004695,
  1605.850,   -35.424485,     1.230332,     0.008108,
  1605.900,   -31.141530,     6.678697,     0.007270,
  1605.950,   -26.079007,    11.533029,     0.004283,
  1606.000,   -21.293371,    15.356390,     0.002265,
  1606.050,   -17.709521,    17.685214,     0.003491,
  1606.100,   -15.894516,    18.366212,     0.003950,
  1606.150,   -15.926376,    17.568468,     0.006923,
  1606.200,   -17.386359,    15.657480,     0.006211,
  1606.250,   -19.504278,    13.248278,     0.002787,
  1606.300,   -21.373327,    11.102024,     0.001839,
  1606.350,   -22.199698,     9.656364,     0.002885,
  1606.400,   -21.489193,     8.512230,     0.003679,
  1606.450,   -19.081132,     6.437454,     0.003827,
  1606.500,   -15.161696,     2.244559,     0.005056,
  1606.550,   -10.176243,    -4.053745,     0.003964,
  1606.600,    -4.602957,   -10.863286,     0.000846,
  1606.650,     1.074777,   -16.094390,     0.001928,
  1606.700,     6.371194,   -18.739961,     0.002414,
  1606.750,    10.894401,   -19.380891,     0.000602,
  1606.800,    14.366518,   -19.346686,     0.000149,
  1606.850,    16.630575,   -19.483057,    -0.000010,
  1606.900,    17.648482,   -19.752751,     0.000629,
  1606.950,    17.517595,   -19.636923,    -0.000995,
  1607.000,    16.463533,   -18.590817,     0.001372,
  1607.050,    14.749910,   -16.308282,     0.000672,
  1607.100,    12.601863,   -12.818196,    -0.001009,
  1607.150,    10.122975,    -8.508961,     0.001666,
  1607.200,     7.264779,    -4.022208,     0.003754,
  1607.250,     3.922385,     0.044169,     0.002307,
  1607.300,     0.063474,     3.579381,     0.002569,
  1607.350,    -4.201606,     6.900983,     0.004497,
  1607.400,    -8.525029,    10.047191,     0.002654,
  1607.450,   -12.484065,    12.423038,     0.002912,
  1607.500,   -15.737450,    13.233508,     0.002928,
  1607.550,   -18.059312,    12.249140,     0.002988,
  1607.600,   -19.393993,    10.098487,     0.002700,
  1607.650,   -19.828144,     7.789852,     0.003138,
  1607.700,   -19.501236,     6.076941,     0.002587,
  1607.750,   -18.483210,     5.287014,     0.003301,
  1607.800,   -16.790158,     5.472021,     0.002985,
  1607.850,   -14.423429,     6.566751,     0.002153,
  1607.900,   -11.427941,     8.365041,     0.002871,
  1607.950,    -7.925317,    10.359530,     0.002196,
  1608.000,    -4.080682,    11.678463,     0.005221,
  1608.050,    -0.148696,    11.550498,     0.002620,
  1608.100,     3.572862,    10.015948,    -0.000206,
  1608.150,     6.847839,     7.990932,     0.001921,
  1608.200,     9.437483,     6.370133,     0.002682,
  1608.250,    11.163523,     5.035272,    -0.000039,
  1608.300,    11.957845,     2.930304,     0.000505,
  1608.350,    11.869022,    -0.812566,     0.001454,
  1608.400,    11.090587,    -5.824809,    -0.001171,
