Time_abs/ps, Signal 1/nA, Ref.signal 1/nA, Signal 2/nA, Ref.signal 2/nA
  1590.000,    -0.043951,    -0.068940,    -0.001526,
  1590.050,    -0.025298,    -0.032358,     0.000146,
  1590.100,    -0.004983,     0.003758,     0.001174,
  1590.150,     0.026207,     0.036722,     0.002075,
  1590.200,     0.048025,     0.060818,    -0.001869,
  1590.250,     0.081538,     0.087398,     0.000834,
  1590.300,     0.113854,     0.107026,    -0.000891,
  1590.350,     0.144829,     0.126921,     0.000512,
  1590.400,     0.179400,     0.137211,    -0.000595,
  1590.450,     0.216050,     0.146189,     0.001828,
  1590.500,     0.248614,     0.148571,    -0.000955,
  1590.550,     0.286460,     0.147922,    -0.000628,
  1590.600,     0.322703,     0.144196,     0.000526,
  1590.650,     0.360008,     0.133075,    -0.002827,
  1590.700,     0.400448,     0.123636,     0.002353,
  1590.750,     0.440021,     0.108291,     0.001488,
  1590.800,     0.474323,     0.086235,    -0.001285,
  1590.850,     0.513256,     0.068167,    -0.001724,
  1590.900,     0.543170,     0.042312,    -0.000747,
  1590.950,     0.577997,     0.017910,     0.000941,
  1591.000,     0.608358,    -0.009890,    -0.000212,
  1591.050,     0.633566,    -0.041528,    -0.001502,
  1591.100,     0.659434,    -0.072983,    -0.001125,
  1591.150,     0.680450,    -0.106378,    -0.001349,
  1591.200,     0.695615,    -0.145444,     0.000639,
  1591.250,     0.711523,    -0.182438,     0.000666,
  1591.300,     0.717095,    -0.220007,     0.000868,
  1591.350,     0.722463,    -0.260168,    -0.001200,
  1591.400,     0.722730,    -0.302175,    -0.002876,
  1591.450,     0.720015,    -0.343312,    -0.003378,
  1591.500,     0.713435,    -0.383203,     0.000553,
  1591.550,     0.700136,    -0.421774,     0.000369,
  1591.600,     0.693277,    -0.463156,     0.000678,
  1591.650,     0.675309,    -0.501765,    -0.000640,
  1591.700,     0.655518,    -0.540231,     0.002108,
  1591.750,     0.637104,    -0.574352,    -0.001514,
  1591.800,     0.610106,    -0.609320,    -0.002365,
  1591.850,     0.588042,    -0.639689,    -0.003018,
  1591.900,     0.558831,    -0.669676,     0.001341,
  1591.950,     0.533196,    -0.692633,    -0.000772,
  1592.000,     0.503778,    -0.714664,     0.001277,
  1592.050,     0.474200,    -0.736240,    -0.001061,
  1592.100,     0.442219,    -0.756595,     0.001685,
  1592.150,     0.411350,    -0.775647,    -0.001781,
  1592.200,     0.380182,    -0.789453,     0.001989,
  1592.250,     0.348590,    -0.810170,     0.001433,
  1592.300,     0.320187,    -0.823961,    -0.001635,
  1592.350,     0.287455,    -0.844216,    -0.000350,
  1592.400,     0.258131,    -0.866561,     0.001026,
  1592.450,     0.225832,    -0.889400,    -0.000744,
  1592.500,     0.198129,    -0.914718,    -0.000112,
  1592.550,     0.169872,    -0.940135,    -0.000748,
  1592.600,     0.145711,    -0.963436,    -0.002760,
  1592.650,     0.117843,    -0.980736,     0.000424,
  1592.700,     0.092022,    -0.982009,     0.000702,
  1592.750,     0.068179,    -0.963601,    -0.001227,
  1592.800,     0.045452,    -0.917532,    -0.001380,
  1592.850,     0.023977,    -0.849515,     0.001059,
  1592.900,     0.004764,    -0.750218,     0.000132,
  1592.950,    -0.012353,    -0.634393,     0.001956,
  1593.000,    -0.033757,    -0.511822,     0.000049,
  1593.050,    -0.050323,    -0.398317,    -0.000771,
  1593.100,    -0.071165,    -0.303906,    -0.001045,
  1593.150,    -0.087473,    -0.234535,     0.000590,
  1593.200,    -0.109163,    -0.191423,     0.001858,
  1593.250,    -0.131848,    -0.167960,     0.000675,
  1593.300,    -0.152260,    -0.170587,     0.000810,
  1593.350,    -0.180058,    -0.176735,    -0.002066,
  1593.400,    -0.211412,    -0.197040,    -0.000795,
  1593.450,    -0.238641,    -0.223862,    -0.000474,
  1593.500,    -0.266004,    -0.249286,     0.000269,
  1593.550,    -0.298536,    -0.277634,     0.000798,
  1593.600,    -0.323890,    -0.304435,    -0.001087,
  1593.650,    -0.341052,    -0.327070,    -0.000885,
  1593.700,    -0.343175,    -0.348608,    -0.001312,
  1593.750,    -0.334270,    -0.368129,    -0.001937,
  1593.800,    -0.302306,    -0.383951,     0.000237,
  1593.850,    -0.254221,    -0.395176,     0.001277,
  1593.900,    -0.182246,    -0.410087,    -0.002429,
  1593.950,    -0.091510,    -0.422619,    -0.000683,
  1594.000,     0.002396,    -0.440700,    -0.000984,
  1594.050,     0.097732,    -0.460708,     0.000810,
  1594.100,     0.190012,    -0.481096,    -0.001096,
  1594.150,     0.266096,    -0.495079,    -0.000441,
  1594.200,     0.329790,    -0.513177,    -0.001301,
  1594.250,     0.378892,    -0.530747,    -0.000441,
  1594.300,     0.404626,    -0.540671,    -0.000149,
  1594.350,     0.410914,    -0.557013,    -0.000646,
  1594.400,     0.412481,    -0.570263,     0.000439,
  1594.450,     0.400223,    -0.585049,     0.000512,
  1594.500,     0.383998,    -0.602013,    -0.000991,
  1594.550,     0.360952,    -0.626659,     0.000603,
  1594.600,     0.341119,    -0.659165,     0.001205,
  1594.650,     0.318429,    -0.698619,    -0.000437,
  1594.700,     0.301278,    -0.746672,     0.000237,
  1594.750,     0.283343,    -0.794567,     0.000816,
  1594.800,     0.266919,    -0.841482,    -0.001368,
  1594.850,     0.251912,    -0.886194,     0.000736,
  1594.900,     0.237450,    -0.925992,     0.001695,
  1594.950,     0.226247,    -0.953352,    -0.000054,
  1595.000,     0.211464,    -0.974391,     0.002446,
  1595.050,     0.195763,    -0.998759,    -0.001033,
  1595.100,     0.181730,    -1.018365,    -0.001696,
  1595.150,     0.168647,    -1.036818,    -0.001295,
  1595.200,     0.152871,    -1.065218,     0.001262,
  1595.250,     0.134885,    -1.094319,     0.001619,
  1595.300,     0.120854,    -1.125637,    -0.001253,
  1595.350,     0.102475,    -1.159225,     0.000885,
  1595.400,     0.080055,    -1.191530,    -0.000961,
  1595.450,     0.057136,    -1.227731,    -0.002279,
  1595.500,     0.031073,    -1.261626,     0.000766,
  1595.550,    -0.002061,    -1.295164,     0.000794,
  1595.600,    -0.038600,    -1.332162,    -0.000489,
  1595.650,    -0.081556,    -1.363674,    -0.000194,
  1595.700,    -0.129773,    -1.389162,     0.000074,
  1595.750,    -0.180964,    -1.414846,     0.000821,
  1595.800,    -0.235429,    -1.436995,    -0.000035,
  1595.850,    -0.291267,    -1.456060,    -0.001221,
  1595.900,    -0.342987,    -1.470597,    -0.001408,
  1595.950,    -0.388464,    -1.477717,     0.000550,
  1596.000,    -0.427933,    -1.481766,    -0.000973,
  1596.050,    -0.466436,    -1.485501,     0.001184,
  1596.100,    -0.497152,    -1.486216,    -0.002672,
  1596.150,    -0.528581,    -1.485145,    -0.000821,
  1596.200,    -0.559300,    -1.486400,     0.001168,
  1596.250,    -0.585112,    -1.490174,     0.000509,
  1596.300,    -0.613353,    -1.501924,     0.000275,
  1596.350,    -0.640935,    -1.519628,     0.000871,
  1596.400,    -0.665358,    -1.545563,     0.001231,
  1596.450,    -0.689632,    -1.574738,    -0.001106,
  1596.500,    -0.714734,    -1.617466,     0.000880,
  1596.550,    -0.735550,    -1.661523,     0.002153,
  1596.600,    -0.752059,    -1.710792,     0.001029,
  1596.650,    -0.767331,    -1.767913,     0.000590,
  1596.700,    -0.776431,    -1.822510,    -0.001611,
  1596.750,    -0.789438,    -1.878388,    -0.001672,
  1596.800,    -0.789413,    -1.933359,    -0.000540,
  1596.850,    -0.792621,    -1.989976,     0.000836,
  1596.900,    -0.791560,    -2.051669,     0.000697,
  1596.950,    -0.790745,    -2.121434,     0.002517,
  1597.000,    -0.790773,    -2.204914,     0.002192,
  1597.050,    -0.783142,    -2.303493,     0.003461,
  1597.100,    -0.780733,    -2.412416,     0.000526,
  1597.150,    -0.776187,    -2.531952,    -0.000398,
  1597.200,    -0.777905,    -2.670573,     0.000186,
  1597.250,    -0.783190,    -2.818230,    -0.001321,
  1597.300,    -0.796103,    -2.977677,    -0.003904,
  1597.350,    -0.817819,    -3.152609,    -0.002030,
  1597.400,    -0.844921,    -3.342651,     0.001347,
  1597.450,    -0.882989,    -3.554891,    -0.000489,
  1597.500,    -0.929409,    -3.785864,     0.001895,
  1597.550,    -0.976324,    -4.032132,     0.001995,
  1597.600,    -1.033136,    -4.294707,     0.001721,
  1597.650,    -1.092340,    -4.563954,     0.000871,
  1597.700,    -1.160158,    -4.826511,     0.001619,
  1597.750,    -1.229826,    -5.056435,     0.001341,
  1597.800,    -1.299530,    -5.212925,     0.001296,
  1597.850,    -1.373294,    -5.256636,     0.001494,
  1597.900,    -1.452735,    -5.133145,     0.000195,
  1597.950,    -1.537009,    -4.767798,     0.001688,
  1598.000,    -1.629056,    -4.113469,    -0.001058,
  1598.050,    -1.730433,    -3.144218,     0.000404,
  1598.100,    -1.843481,    -1.868697,     0.000731,
  1598.150,    -1.968709,    -0.379814,     0.000903,
  1598.200,    -2.103096,     1.164833,    -0.000325,
  1598.250,    -2.254148,     2.588920,    -0.000000,
  1598.300,    -2.418166,     3.714544,    -0.000952,
  1598.350,    -2.597873,     4.407170,     0.000202,
  1598.400,    -2.790266,     4.621544,     0.000207,
  1598.450,    -3.000017,     4.383396,    -0.000267,
  1598.500,    -3.222294,     3.762534,    -0.001285,
  1598.550,    -3.453103,     2.861880,    -0.001823,
  1598.600,    -3.688315,     1.747787,     0.000046,
  1598.650,    -3.914253,     0.491688,     0.000442,
  1598.700,    -4.113054,    -0.848243,    -0.001297,
  1598.750,    -4.260656,    -2.224733,    -0.003332,
  1598.800,    -4.329030,    -3.592406,    -0.002027,
  1598.850,    -4.276343,    -4.932687,    -0.001106,
  1598.900,    -4.063310,    -6.247413,    -0.001559,
  1598.950,    -3.659278,    -7.543628,    -0.000443,
  1599.000,    -3.048025,    -8.831711,     0.001515,
  1599.050,    -2.213134,   -10.097991,    -0.000647,
  1599.100,    -1.179926,   -11.364228,    -0.000209,
  1599.150,    -0.020623,   -12.711254,     0.000477,
  1599.200,     1.185986,   -14.156449,    -0.002063,
  1599.250,     2.344920,   -15.712635,    -0.001537,
  1599.300,     3.339049,   -17.410907,    -0.000796,
  1599.350,     4.077733,   -19.254477,     0.000177,
  1599.400,     4.489093,   -21.225800,     0.001239,
  1599.450,     4.532720,   -23.338304,    -0.001310,
  1599.500,     4.213147,   -25.634721,    -0.001170,
  1599.550,     3.558706,   -28.131044,    -0.000729,
  1599.600,     2.625744,   -30.831510,    -0.001507,
  1599.650,     1.479742,   -33.774863,    -0.001204,
  1599.700,     0.191557,   -37.006192,    -0.001450,
  1599.750,    -1.189233,   -40.556818,     0.001049,
  1599.800,    -2.610098,   -44.455466,     0.000760,
  1599.850,    -4.025255,   -48.774539,     0.000649,
  1599.900,    -5.422214,   -53.534944,    -0.000041,
  1599.950,    -6.797819,   -58.711274,     0.002742,
  1600.000,    -8.161534,   -64.314675,    -0.000587,
  1600.050,    -9.509070,   -70.381396,     0.003554,
  1600.100,   -10.868257,   -76.967427,     0.003344,
  1600.150,   -12.290171,   -84.156929,     0.002899,
  1600.200,   -13.782932,   -92.058566,     0.002876,
  1600.250,   -15.369491,  -100.799520,     0.002072,
  1600.300,   -17.075029,  -110.522585,     0.002932,
  1600.350,   -18.925467,  -121.452430,     0.003491,
  1600.400,   -20.913640,  -133.754885,     0.003826,
  1600.450,   -23.067720,  -147.528762,     0.004880,
  1600.500,   -25.411709,  -162.834933,     0.006774,
  1600.550,   -27.961512,  -179.574572,     0.005720,
  1600.600,   -30.736001,  -197.472647,     0.002625,
  1600.650,   -33.758648,  -215.888354,     0.006438,
  1600.700,   -37.071198,  -233.748932,     0.005668,
  1600.750,   -40.690303,  -249.297246,     0.004294,
  1600.800,   -44.640933,  -260.056609,     0.005531,
  1600.850,   -48.990317,  -262.565857,     0.007182,
  1600.900,   -53.767175,  -252.578728,     0.007592,
  1600.950,   -58.986430,  -225.451961,     0.009767,
  1601.000,   -64.681028,  -176.977868,     0.010815,
  1601.050,   -70.892991,  -104.679404,     0.010374,
  1601.100,   -77.693816,    -8.839239,     0.011936,
  1601.150,   -85.145600,   106.136140,     0.012450,
  1601.200,   -93.355757,   231.672251,     0.015492,
  1601.250,  -102.418876,   356.166326,     0.016537,
  1601.300,  -112.435761,   467.244587,     0.016069,
  1601.350,  -123.583880,   555.137411,     0.018008,
  1601.400,  -135.919984,   614.768504,     0.019443,
  1601.450,  -149.442907,   645.991309,     0.022319,
  1601.500,  -164.118525,   652.010283,     0.024514,
  1601.550,  -179.640578,   637.141925,     0.026644,
  1601.600,  -195.514369,   605.518776,     0.026618,
  1601.650,  -210.894096,   560.981456,     0.027089,
  1601.700,  -224.431521,   507.729648,     0.030453,
  1601.750,  -234.329683,   449.887045,     0.030711,
  1601.800,  -238.268621,   390.839181,     0.028731,
  1601.850,  -233.516836,   332.609040,     0.027452,
  1601.900,  -217.100327,   276.120220,     0.025114,
  1601.950,  -186.268988,   222.423484,     0.020142,
  1602.000,  -139.015515,   172.839212,     0.012317,
  1602.050,   -74.454697,   128.378837,     0.004446,
  1602.100,     6.367376,    89.011362,    -0.000750,
  1602.150,   100.506553,    53.583790,    -0.015015,
  1602.200,   203.045325,    21.021494,    -0.028326,
  1602.250,   307.353450,    -8.799335,    -0.039771,
  1602.300,   406.259997,   -35.159339,    -0.050104,
  1602.350,   492.620680,   -56.914842,    -0.061408,
  1602.400,   560.650882,   -73.219506,    -0.067492,
  1602.450,   606.816978,   -83.860269,    -0.074445,
  1602.500,   629.699497,   -89.186607,    -0.081176,
  1602.550,   630.173865,   -89.856102,    -0.081918,
  1602.600,   610.845027,   -86.642623,    -0.079443,
  1602.650,   575.416896,   -80.779445,    -0.077610,
  1602.700,   528.037346,   -74.358365,    -0.070702,
  1602.750,   472.836682,   -70.138800,    -0.064980,
  1602.800,   413.497518,   -70.558678,    -0.060919,
  1602.850,   353.076029,   -76.723886,    -0.053385,
  1602.900,   293.951427,   -87.961458,    -0.043340,
  1602.950,   237.767512,  -102.137348,    -0.035042,
  1603.000,   185.513887,  -116.612364,    -0.029870,
  1603.050,   137.822306,  -129.138781,    -0.024064,
  1603.100,    94.862431,  -137.960349,    -0.015082,
  1603.150,    56.589334,  -141.649257,    -0.010090,
  1603.200,    22.874682,  -139.390899,    -0.008199,
  1603.250,    -6.427553,  -131.603012,    -0.002164,
  1603.300,   -31.365329,  -120.445189,     0.004025,
  1603.350,   -51.925646,  -109.066470,     0.005838,
  1603.400,   -68.038048,  -100.018354,     0.008514,
  1603.450,   -79.643062,   -94.383645,     0.010860,
  1603.500,   -86.881247,   -91.707833,     0.010264,
  1603.550,   -90.183765,   -90.702525,     0.011790,
  1603.600,   -90.333523,   -90.295962,     0.012530,
  1603.650,   -88.446030,   -90.249412,     0.011114,
  1603.700,   -85.859969,   -90.885340,     0.009580,
  1603.750,   -83.954643,   -92.345023,     0.011578,
  1603.800,   -83.924548,   -94.146921,     0.014861,
  1603.850,   -86.545578,   -95.499113,     0.016525,
  1603.900,   -92.006509,   -95.880351,     0.014791,
  1603.950,   -99.826406,   -95.346260,     0.015345,
  1604.000,  -108.933269,   -94.218259,     0.015379,
  1604.050,  -117.979631,   -92.530859,     0.017394,
  1604.100,  -125.528459,   -90.053672,     0.018857,
  1604.150,  -130.354384,   -86.669679,     0.019563,
  1604.200,  -131.753671,   -82.347128,     0.020182,
  1604.250,  -129.687122,   -76.773234,     0.020654,
  1604.300,  -124.701478,   -69.412220,     0.021964,
  1604.350,  -117.803206,   -60.103932,     0.019069,
  1604.400,  -110.230210,   -49.508870,     0.015586,
  1604.450,  -103.103389,   -38.911614,     0.014831,
  1604.500,   -97.221412,   -29.739350,     0.015966,
  1604.550,   -93.017766,   -23.134449,     0.013561,
  1604.600,   -90.540755,   -19.578321,     0.012354,
  1604.650,   -89.565459,   -18.929841,     0.013336,
  1604.700,   -89.689136,   -20.886798,     0.013707,
  1604.750,   -90.463984,   -25.167227,     0.013800,
  1604.800,   -91.482411,   -31.247200,     0.012506,
  1604.850,   -92.386170,   -37.997928,     0.014457,
  1604.900,   -92.893225,   -43.648264,     0.015089,
  1604.950,   -92.806239,   -46.267773,     0.016246,
  1605.000,   -91.969778,   -44.625770,     0.014786,
  1605.050,   -90.288328,   -38.989235,     0.013996,
  1605.100,   -87.678903,   -31.050858,     0.015753,
  1605.150,   -84.056810,   -23.017961,     0.012289,
  1605.200,   -79.353558,   -16.617124,     0.011566,
  1605.250,   -73.521194,   -12.842625,     0.008224,
  1605.300,   -66.623209,   -12.177837,     0.006132,
  1605.350,   -58.856764,   -14.570194,     0.008426,
  1605.400,   -50.588200,   -19.067645,     0.008073,
  1605.450,   -42.370412,   -23.871075,     0.006711,
  1605.500,   -34.821852,   -27.131891,     0.005646,
  1605.550,   -28.574915,   -27.808437,     0.005346,
  1605.600,   -24.180433,   -25.903487,     0.008107,
  1605.650,   -21.971896,   -21.964681,     0.006225,
  1605.700,   -21.969052,   -16.652180,     0.003606,
  1605.750,   -23.889190,   -10.672638,     0.004492,
  1605.800,   -27.152249,    -4.601103,     0.006456,
  1605.850,   -30.930722,     1.230332,     0.005658,
  1605.900,   -34.331556,     6.678697,     0.004415,
  1605.950,   -36.539389,    11.533029,     0.004232,
  1606.000,   -36.981353,    15.356390,     0.006936,
  1606.050,   -35.476288,    17.685214,     0.006500,
  1606.100,   -32.290205,    18.366212,     0.003075,
  1606.150,   -28.061523,    17.568468,     0.004753,
  1606.200,   -23.637646,    15.657480,     0.004680,
  1606.250,   -19.872898,    13.248278,     0.002801,
  1606.300,   -17.384367,    11.102024,     0.004479,
  1606.350,   -16.440095,     9.656364,     0.005449,
  1606.400,   -16.887012,     8.512230,     0.004507,
  1606.450,   -18.211433,     6.437454,     0.002031,
  1606.500,   -19.692615,     2.244559,     0.001739,
  1606.550,   -20.604771,    -4.053745,     0.002251,
  1606.600,   -20.393209,   -10.863286,     0.004591,
  1606.650,   -18.739155,   -16.094390,     0.003996,
  1606.700,   -15.636063,   -18.739961,     0.001937,
  1606.750,   -11.344269,   -19.380891,     0.004853,
  1606.800,    -6.265284,   -19.346686,     0.003159,
  1606.850,    -0.829275,   -19.483057,     0.001251,
  1606.900,     4.478116,   -19.752751,     0.000225,
  1606.950,     9.221734,   -19.636923,     0.000481,
  1607.000,    13.073470,   -18.590817,    -0.002165,
  1607.050,    15.827554,   -16.308282,    -0.003240,
  1607.100,    17.393810,   -12.818196,    -0.001937,
  1607.150,    17.805035,    -8.508961,    -0.001711,
  1607.200,    17.198892,    -4.022208,    -0.001528,
  1607.250,    15.773255,     0.044169,    -0.002320,
  1607.300,    13.726360,     3.579381,    -0.001745,
  1607.350,    11.198512,     6.900983,    -0.000756,
  1607.400,     8.244063,    10.047191,     0.001533,
  1607.450,     4.869217,    12.423038,    -0.000972,
  1607.500,     1.095550,    13.233508,    -0.000748,
  1607.550,    -2.982089,    12.249140,     0.000816,
  1607.600,    -7.121578,    10.098487,     0.000839,
  1607.650,   -11.014171,     7.789852,     0.001298,
  1607.700,   -14.384885,     6.076941,     0.004093,
  1607.750,   -16.999917,     5.287014,     0.002782,
  1607.800,   -18.709783,     5.472021,     0.002165,
  1607.850,   -19.488944,     6.566751,     0.003722,
  1607.900,   -19.409445,     8.365041,     0.002695,
  1607.950,   -18.548265,    10.359530,     0.000004,
  1608.000,   -16.965045,    11.678463,    -0.000924,
  1608.050,   -14.715886,    11.550498,     0.002311,
  1608.100,   -11.869074,    10.015948,     0.001733,
  1608.150,    -8.538572,     7.990932,     0.002041,
  1608.200,    -4.852371,     6.370133,     0.001777,
  1608.250,    -1.022638,     5.035272,     0.001670,
  1608.300,     2.673586,     2.930304,     0.003193,
  1608.350,     5.990353,    -0.812566,     0.000661,
  1608.400,     8.706318,    -5.824809,    -0.000769,
